 #Independent Particle F
 #Numkpts,nspin=         125           1
 #spin=           1
 #Number of BSE conduction states=           4
 #Number of BSE valence          states=           4
 #Total number of val/cond states=          38          38
 #Gaussian broadening= F
 #If not Gaussian broadening then Lorentzian
 #Broadenings= -8.300000000000000E-002  0.107000000000000     
 #LDA energies used as N.L. potential correction in BSE program and NOT lmf F
 #direction of q-vector=
 #  0.000000000000000E+000  0.000000000000000E+000   1.00000000000000     
 #Energy(eV),Real(eps),Imag(eps)
  0.000000000000000E+000   1.77779801578468      -4.960429322983267E-002
  3.401875234404301E-003   1.77779994993633      -4.959023823112344E-002
  6.803750468808602E-003   1.77780194271682      -4.957619580711492E-002
  1.020562570321290E-002   1.77780399412934      -4.956216594735196E-002
  1.360750093761720E-002   1.77780610417711      -4.954814864139126E-002
  1.700937617202150E-002   1.77780827286340      -4.953414387880122E-002
  2.041125140642580E-002   1.77781050019148      -4.952015164916206E-002
  2.381312664083010E-002   1.77781278616469      -4.950617194206518E-002
  2.721500187523441E-002   1.77781513078637      -4.949220474711474E-002
  3.061687710963871E-002   1.77781753405988      -4.947825005392510E-002
  3.401875234404301E-002   1.77781999598865      -4.946430785212363E-002
  3.742062757844731E-002   1.77782251657610      -4.945037813134821E-002
  4.082250281285161E-002   1.77782509582571      -4.943646088124912E-002
  4.422437804725591E-002   1.77782773374097      -4.942255609148789E-002
  4.762625328166021E-002   1.77783043032541      -4.940866375173777E-002
  5.102812851606451E-002   1.77783318558258      -4.939478385168318E-002
  5.443000375046882E-002   1.77783599951607      -4.938091638102059E-002
  5.783187898487311E-002   1.77783887212949      -4.936706132945772E-002
  6.123375421927742E-002   1.77784180342650      -4.935321868671430E-002
  6.463562945368172E-002   1.77784479341076      -4.933938844252074E-002
  6.803750468808602E-002   1.77784784208599      -4.932557058661902E-002
  7.143937992249032E-002   1.77785094945592      -4.931176510876336E-002
  7.484125515689462E-002   1.77785411552431      -4.929797199871911E-002
  7.824313039129892E-002   1.77785734029497      -4.928419124626243E-002
  8.164500562570322E-002   1.77786062377171      -4.927042284118167E-002
  8.504688086010752E-002   1.77786396595840      -4.925666677327632E-002
  8.844875609451182E-002   1.77786736685892      -4.924292303235715E-002
  9.185063132891612E-002   1.77787082647717      -4.922919160824639E-002
  9.525250656332042E-002   1.77787434481713      -4.921547249077789E-002
  9.865438179772473E-002   1.77787792188275      -4.920176566979630E-002
  0.102056257032129        1.77788155767804      -4.918807113515802E-002
  0.105458132266533        1.77788525220705      -4.917438887673044E-002
  0.108860007500938        1.77788900547383      -4.916071888439263E-002
  0.112261882735342        1.77789281748247      -4.914706114803469E-002
  0.115663757969746        1.77789668823712      -4.913341565755800E-002
  0.119065633204151        1.77790061774192      -4.911978240287523E-002
  0.122467508438555        1.77790460600106      -4.910616137391067E-002
  0.125869383672959        1.77790865301876      -4.909255256059870E-002
  0.129271258907363        1.77791275879926      -4.907895595288644E-002
  0.132673134141768        1.77791692334684      -4.906537154073119E-002
  0.136075009376172        1.77792114666581      -4.905179931410140E-002
  0.139476884610576        1.77792542876050      -4.903823926297713E-002
  0.142878759844981        1.77792976963528      -4.902469137734973E-002
  0.146280635079385        1.77793416929455      -4.901115564722041E-002
  0.149682510313789        1.77793862774274      -4.899763206260336E-002
  0.153084385548194        1.77794314498430      -4.898412061352229E-002
  0.156486260782598        1.77794772102372      -4.897062129001337E-002
  0.159888136017002        1.77795235586553      -4.895713408212268E-002
  0.163290011251406        1.77795704951425      -4.894365897990782E-002
  0.166691886485811        1.77796180197448      -4.893019597343745E-002
  0.170093761720215        1.77796661325083      -4.891674505279085E-002
  0.173495636954619        1.77797148334793      -4.890330620805915E-002
  0.176897512189024        1.77797641227045      -4.888987942934416E-002
  0.180299387423428        1.77798140002309      -4.887646470675791E-002
  0.183701262657832        1.77798644661059      -4.886306203042445E-002
  0.187103137892237        1.77799155203770      -4.884967139047792E-002
  0.190505013126641        1.77799671630921      -4.883629277706414E-002
  0.193906888361045        1.77800193942994      -4.882292618033972E-002
  0.197308763595449        1.77800722140474      -4.880957159047140E-002
  0.200710638829854        1.77801256223850      -4.879622899763782E-002
  0.204112514064258        1.77801796193612      -4.878289839202771E-002
  0.207514389298662        1.77802342050255      -4.876957976384139E-002
  0.210916264533067        1.77802893794275      -4.875627310328965E-002
  0.214318139767471        1.77803451426174      -4.874297840059336E-002
  0.217720015001875        1.77804014946454      -4.872969564598593E-002
  0.221121890236280        1.77804584355623      -4.871642482971018E-002
  0.224523765470684        1.77805159654188      -4.870316594202034E-002
  0.227925640705088        1.77805740842663      -4.868991897318097E-002
  0.231327515939492        1.77806327921563      -4.867668391346785E-002
  0.234729391173897        1.77806920891406      -4.866346075316710E-002
  0.238131266408301        1.77807519752714      -4.865024948257603E-002
  0.241533141642705        1.77808124506012      -4.863705009200214E-002
  0.244935016877110        1.77808735151826      -4.862386257176440E-002
  0.248336892111514        1.77809351690689      -4.861068691219143E-002
  0.251738767345918        1.77809974123133      -4.859752310362317E-002
  0.255140642580323        1.77810602449696      -4.858437113641020E-002
  0.258542517814727        1.77811236670916      -4.857123100091358E-002
  0.261944393049131        1.77811876787338      -4.855810268750541E-002
  0.265346268283535        1.77812522799506      -4.854498618656775E-002
  0.268748143517940        1.77813174707970      -4.853188148849377E-002
  0.272150018752344        1.77813832513282      -4.851878858368705E-002
  0.275551893986748        1.77814496215997      -4.850570746256124E-002
  0.278953769221153        1.77815165816674      -4.849263811554196E-002
  0.282355644455557        1.77815841315872      -4.847958053306389E-002
  0.285757519689961        1.77816522714156      -4.846653470557265E-002
  0.289159394924366        1.77817210012095      -4.845350062352510E-002
  0.292561270158770        1.77817903210257      -4.844047827738773E-002
  0.295963145393174        1.77818602309218      -4.842746765763790E-002
  0.299365020627578        1.77819307309552      -4.841446875476339E-002
  0.302766895861983        1.77820018211840      -4.840148155926255E-002
  0.306168771096387        1.77820735016664      -4.838850606164347E-002
  0.309570646330791        1.77821457724610      -4.837554225242616E-002
  0.312972521565196        1.77822186336267      -4.836259012213960E-002
  0.316374396799600        1.77822920852226      -4.834964966132390E-002
  0.319776272034004        1.77823661273082      -4.833672086052912E-002
  0.323178147268409        1.77824407599435      -4.832380371031621E-002
  0.326580022502813        1.77825159831883      -4.831089820125654E-002
  0.329981897737217        1.77825917971031      -4.829800432393059E-002
  0.333383772971621        1.77826682017488      -4.828512206893140E-002
  0.336785648206026        1.77827451971862      -4.827225142685979E-002
  0.340187523440430        1.77828227834768      -4.825939238832875E-002
  0.343589398674834        1.77829009606821      -4.824654494396113E-002
  0.346991273909239        1.77829797288641      -4.823370908438933E-002
  0.350393149143643        1.77830590880851      -4.822088480025737E-002
  0.353795024378047        1.77831390384076      -4.820807208221786E-002
  0.357196899612452        1.77832195798946      -4.819527092093481E-002
  0.360598774846856        1.77833007126092      -4.818248130708221E-002
  0.364000650081260        1.77833824366148      -4.816970323134419E-002
  0.367402525315664        1.77834647519753      -4.815693668441495E-002
  0.370804400550069        1.77835476587549      -4.814418165699925E-002
  0.374206275784473        1.77836311570178      -4.813143813981180E-002
  0.377608151018877        1.77837152468289      -4.811870612357718E-002
  0.381010026253282        1.77837999282531      -4.810598559903041E-002
  0.384411901487686        1.77838852013559      -4.809327655691652E-002
  0.387813776722090        1.77839710662028      -4.808057898799121E-002
  0.391215651956495        1.77840575228599      -4.806789288301924E-002
  0.394617527190899        1.77841445713934      -4.805521823277632E-002
  0.398019402425303        1.77842322118698      -4.804255502804793E-002
  0.401421277659708        1.77843204443562      -4.802990325962955E-002
  0.404823152894112        1.77844092689197      -4.801726291832675E-002
  0.408225028128516        1.77844986856277      -4.800463399495523E-002
  0.411626903362920        1.77845886945482      -4.799201648034072E-002
  0.415028778597325        1.77846792957492      -4.797941036531870E-002
  0.418430653831729        1.77847704892993      -4.796681564073478E-002
  0.421832529066133        1.77848622752671      -4.795423229744467E-002
  0.425234404300538        1.77849546537218      -4.794166032631427E-002
  0.428636279534942        1.77850476247326      -4.792909971821809E-002
  0.432038154769346        1.77851411883694      -4.791655046404290E-002
  0.435440030003751        1.77852353447020      -4.790401255468357E-002
  0.438841905238155        1.77853300938008      -4.789148598104529E-002
  0.442243780472559        1.77854254357365      -4.787897073404332E-002
  0.445645655706963        1.77855213705799      -4.786646680460325E-002
  0.449047530941368        1.77856178984024      -4.785397418365947E-002
  0.452449406175772        1.77857150192754      -4.784149286215676E-002
  0.455851281410176        1.77858127332708      -4.782902283105053E-002
  0.459253156644581        1.77859110404609      -4.781656408130464E-002
  0.462655031878985        1.77860099409180      -4.780411660389345E-002
  0.466056907113389        1.77861094347151      -4.779168038980166E-002
  0.469458782347794        1.77862095219252      -4.777925543002265E-002
  0.472860657582198        1.77863102026218      -4.776684171556048E-002
  0.476262532816602        1.77864114768787      -4.775443923742852E-002
  0.479664408051006        1.77865133447697      -4.774204798664977E-002
  0.483066283285411        1.77866158063695      -4.772966795425783E-002
  0.486468158519815        1.77867188617525      -4.771729913129476E-002
  0.489870033754219        1.77868225109939      -4.770494150881328E-002
  0.493271908988624        1.77869267541689      -4.769259507787581E-002
  0.496673784223028        1.77870315913532      -4.768025982955371E-002
  0.500075659457432        1.77871370226227      -4.766793575492857E-002
  0.503477534691837        1.77872430480536      -4.765562284509190E-002
  0.506879409926241        1.77873496677226      -4.764332109114403E-002
  0.510281285160645        1.77874568817064      -4.763103048419605E-002
  0.513683160395049        1.77875646900824      -4.761875101536721E-002
  0.517085035629454        1.77876730929279      -4.760648267578785E-002
  0.520486910863858        1.77877820903209      -4.759422545659702E-002
  0.523888786098262        1.77878916823395      -4.758197934894327E-002
  0.527290661332667        1.77880018690620      -4.756974434398596E-002
  0.530692536567071        1.77881126505674      -4.755752043289208E-002
  0.534094411801475        1.77882240269347      -4.754530760684007E-002
  0.537496287035879        1.77883359982432      -4.753310585701618E-002
  0.540898162270284        1.77884485645728      -4.752091517461750E-002
  0.544300037504688        1.77885617260033      -4.750873555085021E-002
  0.547701912739092        1.77886754826153      -4.749656697692954E-002
  0.551103787973497        1.77887898344893      -4.748440944408125E-002
  0.554505663207901        1.77889047817063      -4.747226294353929E-002
  0.557907538442305        1.77890203243476      -4.746012746654799E-002
  0.561309413676710        1.77891364624948      -4.744800300436065E-002
  0.564711288911114        1.77892531962299      -4.743588954824033E-002
  0.568113164145518        1.77893705256351      -4.742378708945933E-002
  0.571515039379923        1.77894884507930      -4.741169561929965E-002
  0.574916914614327        1.77896069717863      -4.739961512905176E-002
  0.578318789848731        1.77897260886985      -4.738754561001688E-002
  0.581720665083135        1.77898458016128      -4.737548705350424E-002
  0.585122540317540        1.77899661106133      -4.736343945083406E-002
  0.588524415551944        1.77900870157840      -4.735140279333376E-002
  0.591926290786348        1.77902085172094      -4.733937707234191E-002
  0.595328166020753        1.77903306149742      -4.732736227920595E-002
  0.598730041255157        1.77904533091637      -4.731535840528193E-002
  0.602131916489561        1.77905765998632      -4.730336544193613E-002
  0.605533791723966        1.77907004871583      -4.729138338054329E-002
  0.608935666958370        1.77908249711353      -4.727941221248809E-002
  0.612337542192774        1.77909500518806      -4.726745192916428E-002
  0.615739417427179        1.77910757294806      -4.725550252197431E-002
  0.619141292661583        1.77912020040226      -4.724356398233069E-002
  0.622543167895987        1.77913288755937      -4.723163630165466E-002
  0.625945043130391        1.77914563442818      -4.721971947137712E-002
  0.629346918364796        1.77915844101747      -4.720781348293705E-002
  0.632748793599200        1.77917130733607      -4.719591832778405E-002
  0.636150668833604        1.77918423339285      -4.718403399737637E-002
  0.639552544068009        1.77919721919670      -4.717216048318079E-002
  0.642954419302413        1.77921026475654      -4.716029777667401E-002
  0.646356294536817        1.77922337008133      -4.714844586934144E-002
  0.649758169771221        1.77923653518007      -4.713660475267792E-002
  0.653160045005626        1.77924976006176      -4.712477441818744E-002
  0.656561920240030        1.77926304473547      -4.711295485738232E-002
  0.659963795474434        1.77927638921027      -4.710114606178494E-002
  0.663365670708839        1.77928979349531      -4.708934802292650E-002
  0.666767545943243        1.77930325759970      -4.707756073234669E-002
  0.670169421177647        1.77931678153265      -4.706578418159511E-002
  0.673571296412052        1.77933036530335      -4.705401836222975E-002
  0.676973171646456        1.77934400892107      -4.704226326581787E-002
  0.680375046880860        1.77935771239508      -4.703051888393552E-002
  0.683776922115264        1.77937147573468      -4.701878520816838E-002
  0.687178797349669        1.77938529894923      -4.700706223011020E-002
  0.690580672584073        1.77939918204810      -4.699534994136457E-002
  0.693982547818477        1.77941312504069      -4.698364833354363E-002
  0.697384423052882        1.77942712793644      -4.697195739826848E-002
  0.700786298287286        1.77944119074483      -4.696027712716906E-002
  0.704188173521690        1.77945531347536      -4.694860751188431E-002
  0.707590048756095        1.77946949613756      -4.693694854406272E-002
  0.710991923990499        1.77948373874102      -4.692530021536031E-002
  0.714393799224903        1.77949804129532      -4.691366251744362E-002
  0.717795674459307        1.77951240381009      -4.690203544198644E-002
  0.721197549693712        1.77952682629502      -4.689041898067296E-002
  0.724599424928116        1.77954130875979      -4.687881312519533E-002
  0.728001300162520        1.77955585121413      -4.686721786725475E-002
  0.731403175396925        1.77957045366782      -4.685563319856043E-002
  0.734805050631329        1.77958511613063      -4.684405911083235E-002
  0.738206925865733        1.77959983861242      -4.683249559579786E-002
  0.741608801100137        1.77961462112302      -4.682094264519313E-002
  0.745010676334542        1.77962946367235      -4.680940025076365E-002
  0.748412551568946        1.77964436627031      -4.679786840426300E-002
  0.751814426803350        1.77965932892688      -4.678634709745458E-002
  0.755216302037755        1.77967435165204      -4.677483632210969E-002
  0.758618177272159        1.77968943445582      -4.676333607000835E-002
  0.762020052506563        1.77970457734826      -4.675184633293987E-002
  0.765421927740968        1.77971978033947      -4.674036710270174E-002
  0.768823802975372        1.77973504343956      -4.672889837110101E-002
  0.772225678209776        1.77975036665868      -4.671744012995176E-002
  0.775627553444181        1.77976575000703      -4.670599237107885E-002
  0.779029428678585        1.77978119349481      -4.669455508631375E-002
  0.782431303912989        1.77979669713230      -4.668312826749828E-002
  0.785833179147393        1.77981226092976      -4.667171190648201E-002
  0.789235054381798        1.77982788489751      -4.666030599512373E-002
  0.792636929616202        1.77984356904592      -4.664891052528970E-002
  0.796038804850606        1.77985931338535      -4.663752548885624E-002
  0.799440680085011        1.77987511792623      -4.662615087770752E-002
  0.802842555319415        1.77989098267900      -4.661478668373611E-002
  0.806244430553819        1.77990690765415      -4.660343289884357E-002
  0.809646305788224        1.77992289286219      -4.659208951494045E-002
  0.813048181022628        1.77993893831366      -4.658075652394388E-002
  0.816450056257032        1.77995504401916      -4.656943391778259E-002
  0.819851931491437        1.77997120998929      -4.655812168839110E-002
  0.823253806725841        1.77998743623469      -4.654681982771425E-002
  0.826655681960245        1.78000372276604      -4.653552832770392E-002
  0.830057557194649        1.78002006959407      -4.652424718032208E-002
  0.833459432429054        1.78003647672951      -4.651297637753794E-002
  0.836861307663458        1.78005294418314      -4.650171591133004E-002
  0.840263182897862        1.78006947196576      -4.649046577368462E-002
  0.843665058132267        1.78008606008824      -4.647922595659666E-002
  0.847066933366671        1.78010270856144      -4.646799645206962E-002
  0.850468808601075        1.78011941739627      -4.645677725211576E-002
  0.853870683835480        1.78013618660367      -4.644556834875498E-002
  0.857272559069884        1.78015301619463      -4.643436973401660E-002
  0.860674434304288        1.78016990618015      -4.642318139993716E-002
  0.864076309538692        1.78018685657128      -4.641200333856273E-002
  0.867478184773097        1.78020386737908      -4.640083554194679E-002
  0.870880060007501        1.78022093861467      -4.638967800215169E-002
  0.874281935241905        1.78023807028919      -4.637853071124839E-002
  0.877683810476310        1.78025526241383      -4.636739366131537E-002
  0.881085685710714        1.78027251499977      -4.635626684444045E-002
  0.884487560945118        1.78028982805827      -4.634515025271881E-002
  0.887889436179523        1.78030720160061      -4.633404387825448E-002
  0.891291311413927        1.78032463563809      -4.632294771315972E-002
  0.894693186648331        1.78034213018204      -4.631186174955505E-002
  0.898095061882735        1.78035968524386      -4.630078597956916E-002
